r[m],potential[V]
0.000000000000000000e+00,1.015656570376274048e-01
1.000000000000000269e-09,1.012869604744139895e-01
2.000000000000000538e-09,1.010082639112005881e-01
3.000000000000001221e-09,1.007127558125697903e-01
4.000000000000001076e-09,1.004107910203051596e-01
5.000000000000000932e-09,9.999343059936970091e-02
6.000000000000002442e-09,9.951635654931580144e-02
7.000000000000002297e-09,9.899014390234760208e-02
8.000000000000002153e-09,9.840208976118179629e-02
9.000000000000002835e-09,9.777829879033703153e-02
1.000000000000000186e-08,9.707785914270357364e-02
1.100000000000000255e-08,9.637741949507011574e-02
1.200000000000000488e-08,9.557552595792138950e-02
1.300000000000000391e-08,9.477232594943482691e-02
1.400000000000000459e-08,9.391362874383328563e-02
1.500000000000000528e-08,9.304775820363600514e-02
1.600000000000000431e-08,9.213769967723137166e-02
1.700000000000000333e-08,9.120345614720531957e-02
1.800000000000000567e-08,9.026188002541081501e-02
1.900000000000000470e-08,8.931553247669252182e-02
2.000000000000000373e-08,8.837333930486293565e-02
2.100000000000000606e-08,8.743964564039252707e-02
2.200000000000000509e-08,8.650287016437641086e-02
2.300000000000000412e-08,8.555972475114820286e-02
2.400000000000000977e-08,8.462186581018850406e-02
2.500000000000000879e-08,8.369729215971324909e-02
2.600000000000000782e-08,8.277460013375841086e-02
2.700000000000001016e-08,8.189065188655013372e-02
2.800000000000000919e-08,8.100670363934184270e-02
2.900000000000000822e-08,8.016777339480074538e-02
3.000000000000001055e-08,7.933153173916106249e-02
3.100000000000000627e-08,7.850474157029242728e-02
3.200000000000000861e-08,7.768082940512745227e-02
3.300000000000001095e-08,7.688210236214881865e-02
3.400000000000000667e-08,7.610223478263368480e-02
3.500000000000000900e-08,7.534907169512451708e-02
3.600000000000001134e-08,7.462949394750076348e-02
3.700000000000000706e-08,7.391661640353157370e-02
3.800000000000000940e-08,7.322886454834705294e-02
3.900000000000001173e-08,7.254870496512591527e-02
4.000000000000000745e-08,7.190747597495451837e-02
4.100000000000000979e-08,7.126624698478313535e-02
4.200000000000001213e-08,7.066755548183842328e-02
4.300000000000000785e-08,7.007524720351666903e-02
4.400000000000001019e-08,6.950324658824370838e-02
4.500000000000001252e-08,6.894432726222790575e-02
4.600000000000000824e-08,6.840576951836749298e-02
4.700000000000001058e-08,6.788537649891916714e-02
4.800000000000001953e-08,6.737940110650415815e-02
4.900000000000001525e-08,6.690290080882058121e-02
5.000000000000001759e-08,6.643209295479256260e-02
5.100000000000001993e-08,6.598595182189249952e-02
5.200000000000001565e-08,6.553981068899243645e-02
5.300000000000001798e-08,6.511975731957918290e-02
5.400000000000002032e-08,6.470406390485022863e-02
5.500000000000001604e-08,6.431525179528253811e-02
5.600000000000001838e-08,6.393441287034407061e-02
5.700000000000002071e-08,6.356405965638066424e-02
5.800000000000001643e-08,6.320354985981713192e-02
5.900000000000001877e-08,6.285341949878392453e-02
6.000000000000002111e-08,6.251402745464978983e-02
6.100000000000001683e-08,6.218061003797204639e-02
6.200000000000001255e-08,6.186913509661576965e-02
6.300000000000002150e-08,6.156193400822685541e-02
6.400000000000001722e-08,6.127064140659661123e-02
6.500000000000001294e-08,6.098181830776345375e-02
6.600000000000002189e-08,6.070654375091485977e-02
6.700000000000001761e-08,6.043126919406625885e-02
6.800000000000001333e-08,6.018046125516174349e-02
6.900000000000002229e-08,5.993143783766286675e-02
7.000000000000001801e-08,5.969343503407021495e-02
7.100000000000001373e-08,5.945796440308006442e-02
7.200000000000002268e-08,5.922613223434636948e-02
7.300000000000001840e-08,5.900229917500092458e-02
7.400000000000001412e-08,5.877846611565547275e-02
7.500000000000002308e-08,5.857169867693971799e-02
7.600000000000001880e-08,5.836660825756811305e-02
7.700000000000001452e-08,5.817778507240998348e-02
7.800000000000002347e-08,5.799097131167173236e-02
7.900000000000001919e-08,5.780896705596108576e-02
8.000000000000001491e-08,5.763000470915283918e-02
8.100000000000002386e-08,5.745561573161624136e-02
8.200000000000001958e-08,5.728483170742873498e-02
8.300000000000001530e-08,5.711660555955279384e-02
8.400000000000002426e-08,5.695701534202900207e-02
8.500000000000001998e-08,5.679804590382250828e-02
8.600000000000001570e-08,5.664967426337734480e-02
8.700000000000002465e-08,5.650130262293217437e-02
8.800000000000002037e-08,5.636156871557888859e-02
8.900000000000001609e-08,5.622292972844461501e-02
9.000000000000002504e-08,5.608888779093999799e-02
9.100000000000002076e-08,5.595617593705874693e-02
9.200000000000001648e-08,5.582667638662808240e-02
9.300000000000002544e-08,5.569984257031820180e-02
9.400000000000002116e-08,5.557487863351078666e-02
9.500000000000001688e-08,5.545652058622116409e-02
9.600000000000003907e-08,5.533980577383962318e-02
9.700000000000003479e-08,5.522944460025537572e-02
9.800000000000003051e-08,5.511908342667112132e-02
9.900000000000003946e-08,5.501555648510187552e-02
1.000000000000000352e-07,5.491245901820415720e-02
1.010000000000000309e-07,5.481008517274296721e-02
1.020000000000000399e-07,5.470782476869435335e-02
1.030000000000000356e-07,5.460671913037381392e-02
1.040000000000000313e-07,5.450620537279257660e-02
1.050000000000000402e-07,5.441034644623390232e-02
1.060000000000000360e-07,5.431689743106487417e-02
1.070000000000000317e-07,5.422718465332388577e-02
1.080000000000000406e-07,5.414101649186092019e-02
1.090000000000000364e-07,5.405701309455471920e-02
1.100000000000000321e-07,5.397655458645344434e-02
1.110000000000000410e-07,5.389602580408572874e-02
1.120000000000000368e-07,5.381515908402205450e-02
1.130000000000000325e-07,5.373460327524186286e-02
1.140000000000000414e-07,5.365686442747920337e-02
1.150000000000000371e-07,5.357955463164304488e-02
1.160000000000000329e-07,5.350623221094622656e-02
1.170000000000000418e-07,5.343290979024942211e-02
1.180000000000000375e-07,5.336483847111207074e-02
1.190000000000000333e-07,5.329791332758503780e-02
1.200000000000000422e-07,5.323326073536679970e-02
1.210000000000000379e-07,5.317089647331453561e-02
1.220000000000000337e-07,5.310874799599677593e-02
1.230000000000000294e-07,5.304688705101757301e-02
1.240000000000000251e-07,5.298507505400152501e-02
1.250000000000000473e-07,5.292371343970811437e-02
1.260000000000000430e-07,5.286235182541472455e-02
1.270000000000000387e-07,5.280639598639358390e-02
1.280000000000000344e-07,5.275077884326704464e-02
1.290000000000000302e-07,5.269616276055746201e-02
1.300000000000000259e-07,5.264186798847377002e-02
1.310000000000000481e-07,5.258657922123473327e-02
1.320000000000000438e-07,5.253078135388443426e-02
1.330000000000000395e-07,5.247702986026743510e-02
1.340000000000000352e-07,5.242615102485104206e-02
1.350000000000000309e-07,5.237557382588028249e-02
1.360000000000000267e-07,5.232753206694439052e-02
1.370000000000000489e-07,5.227964972795079435e-02
1.380000000000000446e-07,5.223373346510885862e-02
1.390000000000000403e-07,5.218781720226692983e-02
1.400000000000000360e-07,5.214231694429399128e-02
1.410000000000000317e-07,5.209690396674754309e-02
1.420000000000000275e-07,5.205277352485086773e-02
1.430000000000000496e-07,5.200910788106927890e-02
1.440000000000000454e-07,5.196582699185037929e-02
1.450000000000000411e-07,5.192286494713803380e-02
1.460000000000000368e-07,5.188145240863863139e-02
1.470000000000000325e-07,5.184133565258421117e-02
1.480000000000000282e-07,5.180100329165783501e-02
1.490000000000000504e-07,5.176032312525555290e-02
1.500000000000000462e-07,5.171935024064101827e-02
1.510000000000000419e-07,5.167756483414418650e-02
1.520000000000000376e-07,5.163609632636186053e-02
1.530000000000000333e-07,5.160191580964744451e-02
1.540000000000000290e-07,5.156773529293302849e-02
1.550000000000000512e-07,5.153330697456163373e-02
1.560000000000000469e-07,5.149887490937050255e-02
1.570000000000000427e-07,5.146199517583519012e-02
1.580000000000000384e-07,5.142387528449259004e-02
1.590000000000000341e-07,5.138836280271966844e-02
1.600000000000000298e-07,5.135432175563165585e-02
1.610000000000000255e-07,5.132296965412556922e-02
1.620000000000000477e-07,5.129593152672772688e-02
1.630000000000000434e-07,5.126812488377514160e-02
1.640000000000000392e-07,5.123850995686893978e-02
1.650000000000000349e-07,5.120889502996273102e-02
1.660000000000000306e-07,5.117840840141047593e-02
1.670000000000000263e-07,5.114789253384101342e-02
1.680000000000000485e-07,5.111733285513927333e-02
1.690000000000000442e-07,5.108676399521567407e-02
1.700000000000000400e-07,5.105776328397441249e-02
1.710000000000000357e-07,5.102969730171199453e-02
1.720000000000000314e-07,5.100239299161148099e-02
1.730000000000000271e-07,5.097571945393776505e-02
1.740000000000000493e-07,5.094901100543956785e-02
1.750000000000000450e-07,5.092221520121107542e-02
1.760000000000000407e-07,5.089541939698258299e-02
1.770000000000000365e-07,5.086951330938776356e-02
1.780000000000000322e-07,5.084361437505376113e-02
1.790000000000000279e-07,5.081835073745689241e-02
1.800000000000000501e-07,5.079312441458554844e-02
1.810000000000000458e-07,5.076793667493412210e-02
1.820000000000000415e-07,5.074276452042066760e-02
1.830000000000000372e-07,5.071883690905026887e-02
1.840000000000000330e-07,5.069572691305954115e-02
1.850000000000000287e-07,5.067329435497792967e-02
1.860000000000000509e-07,5.065175053542105704e-02
1.870000000000000466e-07,5.062981969424840134e-02
1.880000000000000423e-07,5.060737643390682966e-02
1.890000000000000380e-07,5.058568274396135767e-02
1.900000000000000338e-07,5.056621164348260034e-02
1.910000000000000295e-07,5.054617158289845258e-02
1.920000000000000781e-07,5.052292128583511788e-02
1.930000000000000739e-07,5.049967098877178318e-02
1.940000000000000696e-07,5.047667955417537572e-02
1.950000000000000653e-07,5.045371335005381652e-02
1.960000000000000610e-07,5.043158945074228267e-02
1.970000000000000567e-07,5.041110609723850611e-02
1.980000000000000789e-07,5.039081410834364561e-02
1.990000000000000746e-07,5.037205731654106899e-02
2.000000000000000704e-07,5.035330052473849932e-02
2.010000000000000661e-07,5.033632298933771870e-02
2.020000000000000618e-07,5.031934858871278671e-02
2.030000000000000575e-07,5.030206890022074356e-02
2.040000000000000797e-07,5.028472716742507509e-02
2.050000000000000754e-07,5.026726002896757944e-02
2.060000000000000711e-07,5.024972748776394132e-02
2.070000000000000669e-07,5.023323569509635655e-02
2.080000000000000626e-07,5.021889040031855128e-02
2.090000000000000583e-07,5.020370055416271265e-02
2.100000000000000805e-07,5.018627142785454798e-02
2.110000000000000762e-07,5.016884230154637636e-02
2.120000000000000719e-07,5.014906415731124750e-02
2.130000000000000677e-07,5.012927746599802475e-02
2.140000000000000634e-07,5.011340560750258966e-02
2.150000000000000591e-07,5.009763323283129149e-02
2.160000000000000813e-07,5.008170208080044150e-02
2.170000000000000770e-07,5.006568335621592453e-02
2.180000000000000727e-07,5.004962310902107137e-02
2.190000000000000684e-07,5.003350983093815540e-02
2.200000000000000642e-07,5.001802424048520240e-02
2.210000000000000599e-07,5.000397904543641553e-02
2.220000000000000821e-07,4.998978516198336608e-02
2.230000000000000778e-07,4.997480718547724077e-02
2.240000000000000735e-07,4.995982920897111546e-02
2.250000000000000692e-07,4.994540088463651079e-02
2.260000000000000649e-07,4.993099397296249520e-02
2.270000000000000607e-07,4.991872679082520053e-02
2.280000000000000829e-07,4.990675232309384896e-02
2.290000000000000786e-07,4.989572700648439024e-02
2.300000000000000743e-07,4.988483430182637929e-02
2.310000000000000700e-07,4.987276025137422214e-02
2.320000000000000657e-07,4.985993467354147418e-02
2.330000000000000615e-07,4.984595868327482832e-02
2.340000000000000836e-07,4.983120827806644670e-02
2.350000000000000794e-07,4.981746545604320148e-02
2.360000000000000751e-07,4.980586197070878407e-02
2.370000000000000708e-07,4.979404560179934852e-02
2.380000000000000665e-07,4.978177252304576139e-02
2.390000000000000622e-07,4.976879284951276489e-02
2.400000000000000844e-07,4.975368839799634152e-02
2.410000000000000537e-07,4.973858394647991815e-02
2.420000000000000759e-07,4.972802768887942676e-02
2.430000000000000981e-07,4.971799871567088303e-02
2.440000000000000673e-07,4.970975870618948855e-02
2.450000000000000895e-07,4.970222549864534295e-02
2.460000000000000587e-07,4.969185677447325589e-02
2.470000000000000809e-07,4.967894055078230647e-02
2.480000000000000502e-07,4.966601727381848158e-02
2.490000000000000724e-07,4.965306507400761571e-02
2.500000000000000946e-07,4.964086155448792226e-02
2.510000000000000638e-07,4.963260124422020497e-02
2.520000000000000860e-07,4.962434093395248769e-02
2.530000000000000553e-07,4.961403330854854271e-02
2.540000000000000774e-07,4.960345198811048212e-02
2.550000000000000467e-07,4.959270315565916104e-02
2.560000000000000689e-07,4.958192353436645383e-02
2.570000000000000911e-07,4.957270157682198281e-02
2.580000000000000603e-07,4.956495220204391872e-02
2.590000000000000825e-07,4.955607553758965139e-02
2.600000000000000518e-07,4.954485596501111144e-02
2.610000000000000740e-07,4.953354414506831727e-02
2.620000000000000961e-07,4.952179144560760887e-02
2.630000000000000654e-07,4.951023301601854137e-02
2.640000000000000876e-07,4.950278708949724937e-02
2.650000000000000568e-07,4.949534116297594349e-02
2.660000000000000790e-07,4.948565590756886373e-02
2.670000000000000483e-07,4.947551855422743089e-02
2.680000000000000705e-07,4.946593998770486972e-02
2.690000000000000926e-07,4.945653272424842262e-02
2.700000000000000619e-07,4.944972539883359802e-02
2.710000000000000841e-07,4.944372513772865574e-02
2.720000000000000533e-07,4.943625227885684037e-02
2.730000000000000755e-07,4.942721964965107739e-02
2.740000000000000977e-07,4.941831868749932410e-02
2.750000000000000670e-07,4.940956596534425843e-02
2.760000000000000892e-07,4.940129632457319897e-02
2.770000000000000584e-07,4.939488996198908993e-02
2.780000000000000806e-07,4.938870654273500721e-02
2.790000000000000498e-07,4.938423490048136216e-02
2.800000000000000720e-07,4.937976325822772405e-02
2.810000000000000942e-07,4.937172667119106573e-02
2.820000000000000635e-07,4.936321426443222166e-02
2.830000000000000857e-07,4.935395698336127179e-02
2.840000000000000549e-07,4.934443427506488011e-02
2.850000000000000771e-07,4.933629328111899248e-02
2.860000000000000993e-07,4.932906385832017820e-02
2.870000000000000685e-07,4.932245364222981321e-02
2.880000000000000907e-07,4.931678680194630238e-02
2.890000000000000600e-07,4.931109552481604402e-02
2.900000000000000822e-07,4.930505601978381336e-02
2.910000000000000514e-07,4.929887268044869097e-02
2.920000000000000736e-07,4.928965618547380412e-02
2.930000000000000958e-07,4.928043969049891726e-02
2.940000000000000650e-07,4.927378391710730138e-02
2.950000000000000872e-07,4.926790263271418890e-02
2.960000000000000565e-07,4.926258219234960073e-02
2.970000000000000787e-07,4.925748612259801124e-02
2.980000000000001009e-07,4.925201036784918746e-02
2.990000000000000701e-07,4.924592439462979754e-02
3.000000000000000923e-07,4.924006127508597647e-02
3.010000000000000616e-07,4.923503371987734273e-02
3.020000000000000837e-07,4.922997026499194989e-02
3.030000000000000530e-07,4.922409899939314548e-02
3.040000000000000752e-07,4.921822773379434107e-02
3.050000000000000974e-07,4.920932574686286837e-02
3.060000000000000666e-07,4.920019848651568939e-02
3.070000000000000888e-07,4.919261882264344687e-02
3.080000000000000581e-07,4.918569755514864972e-02
3.090000000000000802e-07,4.917973968488574543e-02
3.100000000000001024e-07,4.917429812685296386e-02
3.110000000000000717e-07,4.916833584125732126e-02
3.120000000000000939e-07,4.916209170782960547e-02
3.130000000000000631e-07,4.915639923305131082e-02
3.140000000000000853e-07,4.915164072449956789e-02
3.150000000000000546e-07,4.914665687927113891e-02
3.160000000000000768e-07,4.914123544929137333e-02
3.170000000000000989e-07,4.913543312642585509e-02
3.180000000000000682e-07,4.912585303309355278e-02
3.190000000000000904e-07,4.911674293662134094e-02
3.200000000000000596e-07,4.911242366416281036e-02
3.210000000000000818e-07,4.910810439170427977e-02
3.220000000000000511e-07,4.910382402925432543e-02
3.230000000000000733e-07,4.909954411561178594e-02
3.240000000000000955e-07,4.909424462871723321e-02
3.250000000000000647e-07,4.908870535802176138e-02
3.260000000000000869e-07,4.908475596115074308e-02
3.270000000000000561e-07,4.908167175586058278e-02
3.280000000000000783e-07,4.907859389636545777e-02
3.290000000000001005e-07,4.907557075249218553e-02
3.300000000000000698e-07,4.907254760861890636e-02
3.310000000000000920e-07,4.906842529802753206e-02
3.320000000000000612e-07,4.906397444863228735e-02
3.330000000000000834e-07,4.905858857585732730e-02
3.340000000000000526e-07,4.905286496428867826e-02
3.350000000000000748e-07,4.904955002614257847e-02
3.360000000000000970e-07,4.904874064526700689e-02
3.370000000000000663e-07,4.904669670288901162e-02
3.380000000000000885e-07,4.904275099773908880e-02
3.390000000000000577e-07,4.903877541120059413e-02
3.400000000000000799e-07,4.903435490955992959e-02
3.410000000000001021e-07,4.902993440791925117e-02
3.420000000000000713e-07,4.902786961920586883e-02
3.430000000000000935e-07,4.902597423561604051e-02
3.440000000000000628e-07,4.902334172641641119e-02
3.450000000000000850e-07,4.902042529043613983e-02
3.460000000000000542e-07,4.901482969656707073e-02
3.470000000000000764e-07,4.900781149058316272e-02
3.480000000000000986e-07,4.900116352596514679e-02
3.490000000000000679e-07,4.899511728751633488e-02
3.500000000000000900e-07,4.899046905441619554e-02
3.510000000000000593e-07,4.898816650049523519e-02
3.520000000000000815e-07,4.898557128246659731e-02
3.530000000000001037e-07,4.898245644957859024e-02
3.540000000000000729e-07,4.897923471187785871e-02
3.550000000000000951e-07,4.897497882457530621e-02
3.560000000000000644e-07,4.897074068091362281e-02
3.570000000000000865e-07,4.896740452692172063e-02
3.580000000000000558e-07,4.896406837292983233e-02
3.590000000000000780e-07,4.895993074859156940e-02
3.600000000000001002e-07,4.895560992519205207e-02
3.610000000000000694e-07,4.895218405604621209e-02
3.620000000000000916e-07,4.894896580378460538e-02
3.630000000000000609e-07,4.894824389634376549e-02
3.640000000000000831e-07,4.894876282943695645e-02
3.650000000000001052e-07,4.894851263182816575e-02
3.660000000000000745e-07,4.894646917201869035e-02
3.670000000000000967e-07,4.894423337758527920e-02
3.680000000000000659e-07,4.894127650684212960e-02
3.690000000000000881e-07,4.893831963609897306e-02
3.700000000000000574e-07,4.893512201915752730e-02
3.710000000000000796e-07,4.893191043578598576e-02
3.720000000000001018e-07,4.893002387214967497e-02
3.730000000000000710e-07,4.892883340502756501e-02
3.740000000000000932e-07,4.892561941552902444e-02
3.750000000000000624e-07,4.892107963334701992e-02
3.760000000000000846e-07,4.891586060279132925e-02
3.770000000000000539e-07,4.890951357479592781e-02
3.780000000000000761e-07,4.890409066475979311e-02
3.790000000000000983e-07,4.890125536073156726e-02
3.800000000000000675e-07,4.889842005670335529e-02
3.810000000000000897e-07,4.889650369505850469e-02
3.820000000000000589e-07,4.889465390051355581e-02
3.830000000000000811e-07,4.889206846387554595e-02
3.840000000000001563e-07,4.888932002889685713e-02
3.850000000000001255e-07,4.888734868613405643e-02
3.860000000000001477e-07,4.888591413583117523e-02
3.870000000000001170e-07,4.888344040018585690e-02
3.880000000000001391e-07,4.888007741821402685e-02
3.890000000000001613e-07,4.887602859602672295e-02
3.900000000000001306e-07,4.887004175633972297e-02
3.910000000000001528e-07,4.886543342901063930e-02
3.920000000000001220e-07,4.886476625680326313e-02
3.930000000000001442e-07,4.886453511486364004e-02
3.940000000000001135e-07,4.886576521975156268e-02
3.950000000000001357e-07,4.886699532463948531e-02
3.960000000000001578e-07,4.886522559707829477e-02
3.970000000000001271e-07,4.886339275512972813e-02
3.980000000000001493e-07,4.885923686300520236e-02
