r[m],potential[V]
0.000000000000000000e+00,-2.881871113671196638e-01
1.000000000000000269e-09,-2.872783990017300781e-01
2.000000000000000538e-09,-2.863696866363404925e-01
3.000000000000001221e-09,-2.850219413623876763e-01
4.000000000000001076e-09,-2.835055796643310977e-01
5.000000000000000932e-09,-2.814355239237738560e-01
6.000000000000002442e-09,-2.790789488316622879e-01
7.000000000000002297e-09,-2.764200159668468437e-01
8.000000000000002153e-09,-2.733805623378983141e-01
9.000000000000002835e-09,-2.701219285968365913e-01
1.000000000000000186e-08,-2.663931953611416992e-01
1.100000000000000255e-08,-2.626644621254468071e-01
1.200000000000000488e-08,-2.583552501987528283e-01
1.300000000000000391e-08,-2.540385631641490227e-01
1.400000000000000459e-08,-2.493617760923790005e-01
1.500000000000000528e-08,-2.446384440023231521e-01
1.600000000000000431e-08,-2.396986652997690204e-01
1.700000000000000333e-08,-2.346404208657704993e-01
1.800000000000000567e-08,-2.294829471508707530e-01
1.900000000000000470e-08,-2.242609034616054597e-01
2.000000000000000373e-08,-2.190056460026976737e-01
2.100000000000000606e-08,-2.136824359513638250e-01
2.200000000000000509e-08,-2.083342972325649689e-01
2.300000000000000412e-08,-2.029346323110182426e-01
2.400000000000000977e-08,-1.975462456787949461e-01
2.500000000000000879e-08,-1.921862022104472434e-01
2.600000000000000782e-08,-1.868302837932805938e-01
2.700000000000001016e-08,-1.815593026569283230e-01
2.800000000000000919e-08,-1.762883215205759968e-01
2.900000000000000822e-08,-1.711312190360770036e-01
3.000000000000001055e-08,-1.659809176724926782e-01
3.100000000000000627e-08,-1.609127804896914316e-01
3.200000000000000861e-08,-1.558696625258055857e-01
3.300000000000001095e-08,-1.509333592150711723e-01
3.400000000000000667e-08,-1.460770422960473991e-01
3.500000000000000900e-08,-1.413051429282067839e-01
3.600000000000001134e-08,-1.366394126703476264e-01
3.700000000000000706e-08,-1.320096666045907086e-01
3.800000000000000940e-08,-1.275148608568511255e-01
3.900000000000001173e-08,-1.230548179882285376e-01
4.000000000000000745e-08,-1.187730273617101651e-01
4.100000000000000979e-08,-1.144912367351917509e-01
4.200000000000001213e-08,-1.103948703052492902e-01
4.300000000000000785e-08,-1.063263288451026384e-01
4.400000000000001019e-08,-1.023717842176889298e-01
4.500000000000001252e-08,-9.849067125692226310e-02
4.600000000000000824e-08,-9.471951135258843690e-02
4.700000000000001058e-08,-9.104644141754712761e-02
4.800000000000001953e-08,-8.743542587230644647e-02
4.900000000000001525e-08,-8.395127302185254048e-02
5.000000000000001759e-08,-8.050139898974081887e-02
5.100000000000001993e-08,-7.720006328383899330e-02
5.200000000000001565e-08,-7.389872757793716773e-02
5.300000000000001798e-08,-7.076229168820215298e-02
5.400000000000002032e-08,-6.765341491545698305e-02
5.500000000000001604e-08,-6.467127955932379380e-02
5.600000000000001838e-08,-6.172673660090920861e-02
5.700000000000002071e-08,-5.886160297708521727e-02
5.800000000000001643e-08,-5.607101453457368628e-02
5.900000000000001877e-08,-5.336108229824329530e-02
6.000000000000002111e-08,-5.073459505266596226e-02
6.100000000000001683e-08,-4.813912521933416677e-02
6.200000000000001255e-08,-4.565757023804999093e-02
6.300000000000002150e-08,-4.320240708493053999e-02
6.400000000000001722e-08,-4.084548176359935334e-02
6.500000000000001294e-08,-3.851035391306011080e-02
6.600000000000002189e-08,-3.629481448676945970e-02
6.700000000000001761e-08,-3.407927506047880167e-02
6.800000000000001333e-08,-3.198144228661235766e-02
6.900000000000002229e-08,-2.989219468137520666e-02
7.000000000000001801e-08,-2.790541808994019546e-02
7.100000000000001373e-08,-2.594218594856129156e-02
7.200000000000002268e-08,-2.402156323745820513e-02
7.300000000000001840e-08,-2.219461677465028870e-02
7.400000000000001412e-08,-2.036767031184237228e-02
7.500000000000002308e-08,-1.863744905865461973e-02
7.600000000000001880e-08,-1.691673288302129527e-02
7.700000000000001452e-08,-1.528998315460451674e-02
7.800000000000002347e-08,-1.367484071426189676e-02
7.900000000000001919e-08,-1.211642509936325905e-02
8.000000000000001491e-08,-1.059388798637581064e-02
8.100000000000002386e-08,-9.123331229080091850e-03
8.200000000000001958e-08,-7.693747930564668637e-03
8.300000000000001530e-08,-6.284799110364083959e-03
8.400000000000002426e-08,-4.945516644542453759e-03
8.500000000000001998e-08,-3.610764913254221192e-03
8.600000000000001570e-08,-2.353360810918528161e-03
8.700000000000002465e-08,-1.095956708582835346e-03
8.800000000000002037e-08,9.584311382189369326e-05
8.900000000000001609e-08,1.279326928798976432e-03
9.000000000000002504e-08,2.407016305714249592e-03
9.100000000000002076e-08,3.518562444179129927e-03
9.200000000000001648e-08,4.590436220519979703e-03
9.300000000000002544e-08,5.629387836488275801e-03
9.400000000000002116e-08,6.654104300373440625e-03
9.500000000000001688e-08,7.628530977239748878e-03
9.600000000000003907e-08,8.590912505957944839e-03
9.700000000000003479e-08,9.506720948736545676e-03
9.800000000000003051e-08,1.042252939151514651e-02
9.900000000000003946e-08,1.128489897700018195e-02
1.000000000000000352e-07,1.214391037452312513e-02
1.010000000000000309e-07,1.295956688329032852e-02
1.020000000000000399e-07,1.376842668928759429e-02
1.030000000000000356e-07,1.454418922374083392e-02
1.040000000000000313e-07,1.530298759215218719e-02
1.050000000000000402e-07,1.603264989708158908e-02
1.060000000000000360e-07,1.674722780240682496e-02
1.070000000000000317e-07,1.744036344337448335e-02
1.080000000000000406e-07,1.811315653364978240e-02
1.090000000000000364e-07,1.877043235558404494e-02
1.100000000000000321e-07,1.940229802054562608e-02
1.110000000000000410e-07,2.002768669069618021e-02
1.120000000000000368e-07,2.062192852981775334e-02
1.130000000000000325e-07,2.121270000036198575e-02
1.140000000000000414e-07,2.177202876194577960e-02
1.150000000000000371e-07,2.232826100231209698e-02
1.160000000000000329e-07,2.285571585943444242e-02
1.170000000000000418e-07,2.338317071655678786e-02
1.180000000000000375e-07,2.388381531506736724e-02
1.190000000000000333e-07,2.437860794819901589e-02
1.200000000000000422e-07,2.485867742308010483e-02
1.210000000000000379e-07,2.532392151336693847e-02
1.220000000000000337e-07,2.577759850149319298e-02
1.230000000000000294e-07,2.621586236995606528e-02
1.240000000000000251e-07,2.665141840859111544e-02
1.250000000000000473e-07,2.706205901271699701e-02
1.260000000000000430e-07,2.747269961684288206e-02
1.270000000000000387e-07,2.786240773079344882e-02
1.280000000000000344e-07,2.825080433101495245e-02
1.290000000000000302e-07,2.862348998009988862e-02
1.300000000000000259e-07,2.899113288105725772e-02
1.310000000000000481e-07,2.934356673716972605e-02
1.320000000000000438e-07,2.968821089090664320e-02
1.330000000000000395e-07,3.002515987931652849e-02
1.340000000000000352e-07,3.035130654974221159e-02
1.350000000000000309e-07,3.067563503537307570e-02
1.360000000000000267e-07,3.098468055839667321e-02
1.370000000000000489e-07,3.129250890814439662e-02
1.380000000000000446e-07,3.158532624160657887e-02
1.390000000000000403e-07,3.187814357506876806e-02
1.400000000000000360e-07,3.215728586631275143e-02
1.410000000000000317e-07,3.243355904806830697e-02
1.420000000000000275e-07,3.269990932623093038e-02
1.430000000000000496e-07,3.296266348845931782e-02
1.440000000000000454e-07,3.321787370947622275e-02
1.450000000000000411e-07,3.346683229777291241e-02
1.460000000000000368e-07,3.370888367165415095e-02
1.470000000000000325e-07,3.394515885237869152e-02
1.480000000000000282e-07,3.417704075217149057e-02
1.490000000000000504e-07,3.440183558036318673e-02
1.500000000000000462e-07,3.462309149345371706e-02
1.510000000000000419e-07,3.483452415046145445e-02
1.520000000000000376e-07,3.504566107310826822e-02
1.530000000000000333e-07,3.524999673944730072e-02
1.540000000000000290e-07,3.545433240578631934e-02
1.550000000000000512e-07,3.564939696126994545e-02
1.560000000000000469e-07,3.584432133536292336e-02
1.570000000000000427e-07,3.603090986590198191e-02
1.580000000000000384e-07,3.621327488246370296e-02
1.590000000000000341e-07,3.639131677744895932e-02
1.600000000000000298e-07,3.656691901312306842e-02
1.610000000000000255e-07,3.674056543744888548e-02
1.620000000000000477e-07,3.691107408183081501e-02
1.630000000000000434e-07,3.707889736499192512e-02
1.640000000000000392e-07,3.724040210902224146e-02
1.650000000000000349e-07,3.740190685305255780e-02
1.660000000000000306e-07,3.755492946734359516e-02
1.670000000000000263e-07,3.770766757014090004e-02
1.680000000000000485e-07,3.785474449917392015e-02
1.690000000000000442e-07,3.800063505183244594e-02
1.700000000000000400e-07,3.814312642303677864e-02
1.710000000000000357e-07,3.828359163852937397e-02
1.720000000000000314e-07,3.842080785140856991e-02
1.730000000000000271e-07,3.855533342996284030e-02
1.740000000000000493e-07,3.868818557846439438e-02
1.750000000000000450e-07,3.881685038087757250e-02
1.760000000000000407e-07,3.894551518329075063e-02
1.770000000000000365e-07,3.906918869667846961e-02
1.780000000000000322e-07,3.919282208044412574e-02
1.790000000000000279e-07,3.931160354113964750e-02
1.800000000000000501e-07,3.943010001976768319e-02
1.810000000000000458e-07,3.954483634210721743e-02
1.820000000000000415e-07,3.965805380327649260e-02
1.830000000000000372e-07,3.976928104308644768e-02
1.840000000000000330e-07,3.987920078656621847e-02
1.850000000000000287e-07,3.998761852029890373e-02
1.860000000000000509e-07,4.009406575030155517e-02
1.870000000000000466e-07,4.019842084714219527e-02
1.880000000000000423e-07,4.030000594589389779e-02
1.890000000000000380e-07,4.040104907114655530e-02
1.900000000000000338e-07,4.050048516309513041e-02
1.910000000000000295e-07,4.059895902378873184e-02
1.920000000000000781e-07,4.069200369911976645e-02
1.930000000000000739e-07,4.078504837445080800e-02
1.940000000000000696e-07,4.087429778366620525e-02
1.950000000000000653e-07,4.096317728075228592e-02
1.960000000000000610e-07,4.105140153216600002e-02
1.970000000000000567e-07,4.113834957035129858e-02
1.980000000000000789e-07,4.122502002974948176e-02
1.990000000000000746e-07,4.130946365029117273e-02
2.000000000000000704e-07,4.139390727083286370e-02
2.010000000000000661e-07,4.147642911887766681e-02
2.020000000000000618e-07,4.155894758105519587e-02
2.030000000000000575e-07,4.163879677505046006e-02
2.040000000000000797e-07,4.171810348798640766e-02
2.050000000000000754e-07,4.179527166008326078e-02
2.060000000000000711e-07,4.187132452014726003e-02
2.070000000000000669e-07,4.194716138900557445e-02
2.080000000000000626e-07,4.202255278554163642e-02
2.090000000000000583e-07,4.209671503207714632e-02
2.100000000000000805e-07,4.216761825699234800e-02
2.110000000000000762e-07,4.223852148190754274e-02
2.120000000000000719e-07,4.230455760176729529e-02
2.130000000000000677e-07,4.237057601229984871e-02
2.140000000000000634e-07,4.243744415639200129e-02
2.150000000000000591e-07,4.250433389393344641e-02
2.160000000000000813e-07,4.256945478473618538e-02
2.170000000000000770e-07,4.263360008036324450e-02
2.180000000000000727e-07,4.269664194361175169e-02
2.190000000000000684e-07,4.275827455058962140e-02
2.200000000000000642e-07,4.281977647996020042e-02
2.210000000000000599e-07,4.288097853497297579e-02
2.220000000000000821e-07,4.294173864504136767e-02
2.230000000000000778e-07,4.300016820376346971e-02
2.240000000000000735e-07,4.305859776248557869e-02
2.250000000000000692e-07,4.311544868115348844e-02
2.260000000000000649e-07,4.317223810114022287e-02
2.270000000000000607e-07,4.322905429524122323e-02
2.280000000000000829e-07,4.328587415203360295e-02
2.290000000000000786e-07,4.334177584048348741e-02
2.300000000000000743e-07,4.339754924578346357e-02
2.310000000000000700e-07,4.345150269481891370e-02
2.320000000000000657e-07,4.350429835671783263e-02
2.330000000000000615e-07,4.355500949661027243e-02
2.340000000000000836e-07,4.360431741367524344e-02
2.350000000000000794e-07,4.365386427538266861e-02
2.360000000000000751e-07,4.370391847290885229e-02
2.370000000000000708e-07,4.375338942830631767e-02
2.380000000000000665e-07,4.380160912502082532e-02
2.390000000000000622e-07,4.384880335128031603e-02
2.400000000000000844e-07,4.389291391897197359e-02
2.410000000000000537e-07,4.393702448666363808e-02
2.420000000000000759e-07,4.398348758220967797e-02
2.430000000000000981e-07,4.403022341265713790e-02
2.440000000000000673e-07,4.407722041276856267e-02
2.450000000000000895e-07,4.412432059844023646e-02
2.460000000000000587e-07,4.416849254462649338e-02
2.470000000000000809e-07,4.421003368674455980e-02
2.480000000000000502e-07,4.425127126001027200e-02
2.490000000000000724e-07,4.429126401039280847e-02
2.500000000000000946e-07,4.433162444832380866e-02
2.510000000000000638e-07,4.437392145245006025e-02
2.520000000000000860e-07,4.441621845657631185e-02
2.530000000000000553e-07,4.445593967397384189e-02
2.540000000000000774e-07,4.449531654768723588e-02
2.550000000000000467e-07,4.453342745312612039e-02
2.560000000000000689e-07,4.457130567258844878e-02
2.570000000000000911e-07,4.460978992943351318e-02
2.580000000000000603e-07,4.464884712135950423e-02
2.590000000000000825e-07,4.468665447635021548e-02
2.600000000000000518e-07,4.472186422650918647e-02
2.610000000000000740e-07,4.475678867486108242e-02
2.620000000000000961e-07,4.479034957506001363e-02
2.630000000000000654e-07,4.482401680806456096e-02
2.640000000000000876e-07,4.485993500250559651e-02
2.650000000000000568e-07,4.489585319694663207e-02
2.660000000000000790e-07,4.492920378817889110e-02
2.670000000000000483e-07,4.496203600619928104e-02
2.680000000000000705e-07,4.499449397671015372e-02
2.690000000000000926e-07,4.502683721698099578e-02
2.700000000000000619e-07,4.506060631826787344e-02
2.710000000000000841e-07,4.509481803069336631e-02
2.720000000000000533e-07,4.512741931854065414e-02
2.730000000000000755e-07,4.515831485038408755e-02
2.740000000000000977e-07,4.518878921815072669e-02
2.750000000000000670e-07,4.521878940988430934e-02
2.760000000000000892e-07,4.524902242848698880e-02
2.770000000000000584e-07,4.528015347636767801e-02
2.780000000000000806e-07,4.531136066520104200e-02
2.790000000000000498e-07,4.534315247045492964e-02
2.800000000000000720e-07,4.537494427570883115e-02
2.810000000000000942e-07,4.540303171141412547e-02
2.820000000000000635e-07,4.543062471811790820e-02
2.830000000000000857e-07,4.545691318315917689e-02
2.840000000000000549e-07,4.548273679007831805e-02
2.850000000000000771e-07,4.550924982219965026e-02
2.860000000000000993e-07,4.553621769516576212e-02
2.870000000000000685e-07,4.556336551210216079e-02
2.880000000000000907e-07,4.559078747785806629e-02
2.890000000000000600e-07,4.561814661310376051e-02
2.900000000000000822e-07,4.564461040628793598e-02
2.910000000000000514e-07,4.567090885416852375e-02
2.920000000000000736e-07,4.569372052573766191e-02
2.930000000000000958e-07,4.571653219730680007e-02
2.940000000000000650e-07,4.574097019181662394e-02
2.950000000000000872e-07,4.576590006690955253e-02
2.960000000000000565e-07,4.579086930834897623e-02
2.970000000000000787e-07,4.581585429864341863e-02
2.980000000000001009e-07,4.584022516946709147e-02
2.990000000000000701e-07,4.586360904568490687e-02
3.000000000000000923e-07,4.588701420279917009e-02
3.010000000000000616e-07,4.591049915019758398e-02
3.020000000000000837e-07,4.593393292057389860e-02
3.030000000000000530e-07,4.595621511103513412e-02
3.040000000000000752e-07,4.597849730149637659e-02
3.050000000000000974e-07,4.599740556157816407e-02
3.060000000000000666e-07,4.601606303752722726e-02
3.070000000000000888e-07,4.603560437892807028e-02
3.080000000000000581e-07,4.605552174458397291e-02
3.090000000000000802e-07,4.607597395244871635e-02
3.100000000000001024e-07,4.609671279760540336e-02
3.110000000000000717e-07,4.611657374897097650e-02
3.120000000000000939e-07,4.613595953351331408e-02
3.130000000000000631e-07,4.615556798107665198e-02
3.140000000000000853e-07,4.617555340041724909e-02
3.150000000000000546e-07,4.619521251893653202e-02
3.160000000000000768e-07,4.621423798888225215e-02
3.170000000000000989e-07,4.623286299846512959e-02
3.180000000000000682e-07,4.624751616349950106e-02
3.190000000000000904e-07,4.626254784637542916e-02
3.200000000000000596e-07,4.628143787920835361e-02
3.210000000000000818e-07,4.630032791204127113e-02
3.220000000000000511e-07,4.631870898361423877e-02
3.230000000000000733e-07,4.633708418457441192e-02
3.240000000000000955e-07,4.635415346181322865e-02
3.250000000000000647e-07,4.637091561118947269e-02
3.260000000000000869e-07,4.638869654701642531e-02
3.270000000000000561e-07,4.640703189505286652e-02
3.280000000000000783e-07,4.642531150218487390e-02
3.290000000000001005e-07,4.644311049211503201e-02
3.300000000000000698e-07,4.646090948204519705e-02
3.310000000000000920e-07,4.647742677616222701e-02
3.320000000000000612e-07,4.649356097388231829e-02
3.330000000000000834e-07,4.650845226164039559e-02
3.340000000000000526e-07,4.652289459922210463e-02
3.350000000000000748e-07,4.653926474821635378e-02
3.360000000000000970e-07,4.655764025080304236e-02
3.370000000000000663e-07,4.657475566817680102e-02
3.380000000000000885e-07,4.658993000514046606e-02
3.390000000000000577e-07,4.660504191334981922e-02
3.400000000000000799e-07,4.661922429662954809e-02
3.410000000000001021e-07,4.663340667990928390e-02
3.420000000000000713e-07,4.664935102922714710e-02
3.430000000000000935e-07,4.666542208586613866e-02
3.440000000000000628e-07,4.668055667148829357e-02
3.450000000000000850e-07,4.669533054626624075e-02
3.460000000000000542e-07,4.670732345925795309e-02
3.470000000000000764e-07,4.671783970305275896e-02
3.480000000000000986e-07,4.672855218894642060e-02
3.490000000000000679e-07,4.673958361274722223e-02
3.500000000000000900e-07,4.675176507372039852e-02
3.510000000000000593e-07,4.676587615409957127e-02
3.520000000000000815e-07,4.677957306852997127e-02
3.530000000000001037e-07,4.679253464584326450e-02
3.540000000000000729e-07,4.680535790475588015e-02
3.550000000000000951e-07,4.681684313299120520e-02
3.560000000000000644e-07,4.682833868713931480e-02
3.570000000000000865e-07,4.684035915422559565e-02
3.580000000000000558e-07,4.685237962131188344e-02
3.590000000000000780e-07,4.686336400567428506e-02
3.600000000000001002e-07,4.687411156357982472e-02
3.610000000000000694e-07,4.688536444679419768e-02
3.620000000000000916e-07,4.689673455842074956e-02
3.630000000000000609e-07,4.691012392272073117e-02
3.640000000000000831e-07,4.692451698272204902e-02
3.650000000000001052e-07,4.693812251467588403e-02
3.660000000000000745e-07,4.694989189020548626e-02
3.670000000000000967e-07,4.696140051349226990e-02
3.680000000000000659e-07,4.697193155790549413e-02
3.690000000000000881e-07,4.698246260231871835e-02
3.700000000000000574e-07,4.699248001126987706e-02
3.710000000000000796e-07,4.700246762264240902e-02
3.720000000000001018e-07,4.701342918426584111e-02
3.730000000000000710e-07,4.702490240873975769e-02
3.740000000000000932e-07,4.703432285382071198e-02
3.750000000000000624e-07,4.704239833729827180e-02
3.760000000000000846e-07,4.704970488466641426e-02
3.770000000000000539e-07,4.705573449417747162e-02
3.780000000000000761e-07,4.706254604342418463e-02
3.790000000000000983e-07,4.707154708800261739e-02
3.800000000000000675e-07,4.708054813258105709e-02
3.810000000000000897e-07,4.709012763380596850e-02
3.820000000000000589e-07,4.709974903774651056e-02
3.830000000000000811e-07,4.710844735513215059e-02
3.840000000000001563e-07,4.711694114156698282e-02
3.850000000000001255e-07,4.712595009846044097e-02
3.860000000000001477e-07,4.713531491996315881e-02
3.870000000000001170e-07,4.714358488446811907e-02
3.880000000000001391e-07,4.715091796358455989e-02
3.890000000000001613e-07,4.715752121564373983e-02
3.900000000000001306e-07,4.716206215409581709e-02
3.910000000000001528e-07,4.716783245197262581e-02
3.920000000000001220e-07,4.717711747800218403e-02
3.930000000000001442e-07,4.718674909568238568e-02
3.940000000000001135e-07,4.719754222894396306e-02
3.950000000000001357e-07,4.720833536220554738e-02
3.960000000000001578e-07,4.721611553786123766e-02
